Sl.
No.
BIB
No.
NAME
INSTITUTION
100 M
PER
HIGH
JUMP PER
SHOT
PUT PER
LONG
JUMP
PER
100 M
POINTS
HIGH
JUMP
POINTS
SHOT
PUT
POINTS
LONG
JUMP
POINTS
800
METERS
POINTS
TOTAL
RANK
11
167
E.M.VIKRAMAN
SDAT
11.54
1.73
10.14
5.92
2
13.13
744
569
494
569
919
3295
1
6
192
A.S.LOGESHKUMAR
SDAT
12.08
1.64
10.93
5.62
2
11.45
635
496
542
506
944
3123
2
21
2330
S.HARISH
SALEM
11.94
1.55
10.60
5.80
2
13.58
663
426
522
544
913
3068
3
33
194
S.LOKESWARAN
SDAT
11.89
1.64
7.07
6.16
2
22.74
673
496
311
621
787
2888
4
7
147
J.T.GOWTHAMAN
SDAT
12.36
1.76
10.31
5.33
2
27.14
582
593
504
447
729
2855
5
17
672
J.R.ROSAN PRINCE
St.JOSEPH'S SPORTS ACADEMY
12.32
1.55
6.92
5.44
2
10.85
589
426
303
469
952
2739
6
39
1638
M.N.NAVEEN
HAWKS ATHLETIC CLUB
12.21
1.46
8.41
5.00
2
12.16
610
360
391
382
933
2676
7
12
201
P.MUKILAN
SDAT
12.04
1.40
8.27
5.64
2
22.50
643
317
382
510
790
2642
8
14
3718
#N/A
#N/A
12.61
1.46
7.72
5.50
2
21.90
536
360
350
481
798
2525
9
19
3719
#N/A
#N/A
12.76
1.55
7.48
5.05
2
23.48
509
426
336
392
777
2440
10
28
645
P.SHANKAR
St.JOSEPH'S SPORTS ACADEMY
12.22
1.40
7.63
5.51
2
32.78
608
317
344
483
658
2410
11
3
676
K.SACHIN AKASH
St.JOSEPH'S SPORTS ACADEMY
12.46
1.40
7.16
5.24
2
25.93
563
317
317
429
745
2371
12
8
1810
MOHIT RAM
KOVAI ATHLETIC CLUB
12 45
1 40
12 12
4 37
2
46 34
565
317
614
267
502
2265
13
32nd TAMILNADU STATE JUNIOR OPEN ATHLETIC CHAMPIONSHIP 2018
Organised By: THENI DISTRICT ATHLETIC ASSOCIATION
"Venue: Velammal Matric Hr Sec School, Theni."
800 METERS
8
1810
MOHIT RAM
KOVAI ATHLETIC CLUB
12.45
1.40
12.12
4.37
2
46.34
565
317
614
267
502
2265
13
34
664
D.HARISH MATHAN
St.JOSEPH'S SPORTS ACADEMY
12.04
1.52
7.12
4.15
2
33.05
643
404
314
230
655
2246
14
13
647
PARTHASARATHI
St.JOSEPH'S SPORTS ACADEMY
12.45
1.40
8.92
5.83
2
57.47
565
317
421
550
389
2242
15
41
3322
MATHAPPAN
SMART ATHLETIC AC
13.43
1.46
6.72
5.17
2
28.59
397
360
291
415
711
2174
16
25
3074
S.VIGNESWAR
VELLORE
13.14
1.52
6.68
5.40
2
44.66
444
404
289
461
521
2119
17
22
687
N.BARATH KAMAN
St.JOSEPH'S SPORTS ACADEMY
12.50
0.00
8.88
4.96
2
24.91
556
0
419
375
758
2108
18
30
1758
P. DHANUSH
KOLA SPORTS ACADEMY
12.99
1.40
5.90
5.03
2
31.44
470
317
243
388
675
2093
19
4
1635
PRAJOTH K
HAWKS ATHLETIC CLUB
12.73
0.00
7.96
5.34
2
31.38
515
0
364
449
676
2004
20
24
3720
#N/A
#N/A
12.70
0.00
8.06
4.79
2
37.87
520
0
370
343
598
1831
21
31
3827
#N/A
#N/A
13.05
0.00
6.26
5.35
2
35.90
459
0
264
451
621
1795
22
26
673
K.DURAI RAJ
St.JOSEPH'S SPORTS ACADEMY
13.39
0.00
4.98
4.86
2
26.80
404
0
190
356
734
1684
23
36
3892
#N/A
#N/A
13.94
1.40
8.17
4.43
3
6.78
321
317
376
278
305
1597
24
23
2929
M.S.BHARATH KANNAN
Velammal International  SA
12.66
1.40
8.40
4.44
0
0.00
527
317
390
280
0
1514
25
2
2076
K.JAYAKUMAR
NLC
12.18
1.64
8.51
0.00
0
0.00
616
496
397
0
0
1509
26
35
2078
B.ARAVIND
NLC
12.42
1.55
8.30
0.00
0
0.00
571
426
384
0
0
1381
27
15
1756
K. GEETHESH
KOLA SPORTS ACADEMY
13.95
0.00
8.24
4.15
2
53.02
319
0
381
230
433
1363
28
29
1507
S. KARTHI
DINDIGUL DISTRICT
12.73
1.49
9.46
0.00
0
0.00
515
381
453
0
0
1349
29
18
1797
VISHNU KUMAR
KOVAI ATHLETIC CLUB
12.33
0.00
9.00
4.32
0
0.00
588
0
426
259
0
1273
30
1
166
VINVIMAL
SDAT
12.05
1.40
6.70
0.00
0
0.00
641
317
290
0
0
1248
31
20
3717
#N/A
#N/A
14.25
0.00
4.91
4.45
2
54.81
278
0
186
281
415
1160
32
10
1460
S.ROHAN
CK SCHOOL CUDDALOURE
13.18
1.40
8.51
0.00
0
0.00
438
317
397
0
0
1152
33
42
3326
PRAVEEN
SMART ATHLETIC AC
13.48
0.00
8.15
4.28
0
0.00
390
0
375
252
0
1017
34
